,open,high,low,close,volume
2020-01-01 00:00:00+00:00,101.22455147283111,101.624107225,101.00972245757879,101.22455147283111,761.0
2020-01-01 01:00:00+00:00,101.22455147283111,99.73714463691252,99.61221782692384,99.6911524540426,874.0
2020-01-01 02:00:00+00:00,99.6911524540426,100.37480111966683,99.8311533933141,99.94201176207807,948.0
2020-01-01 03:00:00+00:00,99.94201176207807,99.7399264923265,99.58020574502369,99.6013499984013,219.0
2020-01-01 04:00:00+00:00,99.6013499984013,99.54711689504259,98.97955810946982,99.32976042313504,889.0
2020-01-01 05:00:00+00:00,99.32976042313504,99.62925061335174,98.9817597152,99.20040212528119,177.0
2020-01-01 06:00:00+00:00,99.20040212528119,98.41696349264224,97.71172202587402,97.98841044779283,718.0
2020-01-01 07:00:00+00:00,97.98841044779283,98.1434838725721,97.63696612192908,97.84925102120631,534.0
2020-01-01 08:00:00+00:00,97.84925102120631,97.5667682359218,97.25161789321172,97.33012317544136,196.0
2020-01-01 09:00:00+00:00,97.33012317544136,99.67061841944751,98.88834383812815,99.32392288542829,716.0
2020-01-01 10:00:00+00:00,99.32392288542829,99.62237256726874,99.24404927840303,99.45939485336504,857.0
2020-01-01 11:00:00+00:00,99.45939485336504,99.48031662201733,98.9650645700319,99.24781637676008,830.0
2020-01-01 12:00:00+00:00,99.24781637676008,99.31305152660366,98.80035845019884,99.07904392586927,840.0
2020-01-01 13:00:00+00:00,99.07904392586927,99.12808346139944,98.44810664523496,98.6782161182039,279.0
2020-01-01 14:00:00+00:00,98.6782161182039,98.11447984448907,97.72721246197209,98.04512578748083,428.0
2020-01-01 15:00:00+00:00,98.04512578748083,98.41790874346904,97.67689572185876,97.81064520114003,483.0
2020-01-01 16:00:00+00:00,97.81064520114003,98.71248682633059,97.81788442311925,98.0998124342441,575.0
2020-01-01 17:00:00+00:00,98.0998124342441,98.1683029307398,97.94103230074519,97.95668027030008,507.0
2020-01-01 18:00:00+00:00,97.95668027030008,98.82577395421194,98.190321918587,98.53133549207594,561.0
2020-01-01 19:00:00+00:00,98.53133549207594,98.51433399792144,98.0915769389006,98.411454214636,374.0
2020-01-01 20:00:00+00:00,98.411454214636,98.56174324592457,97.87515790030756,98.426009953682,822.0
2020-01-01 21:00:00+00:00,98.426009953682,99.57800038390951,99.28567947171284,99.35350246440969,712.0
2020-01-01 22:00:00+00:00,99.35350246440969,99.85378023171074,99.18755615330527,99.68056577802227,735.0
2020-01-01 23:00:00+00:00,99.68056577802227,99.53932631347922,99.20922944550932,99.37742853665385,585.0
2020-01-02 00:00:00+00:00,99.37742853665385,99.3103065008819,98.61693215723156,99.26772515189522,953.0
2020-01-02 01:00:00+00:00,99.26772515189522,99.8977520709823,99.56212595131522,99.5920402309481,474.0
2020-01-02 02:00:00+00:00,99.5920402309481,101.13628907667312,100.28196597017656,100.7530930514074,545.0
2020-01-02 03:00:00+00:00,100.7530930514074,100.62101390808468,100.1441456457536,100.59132085500227,794.0
2020-01-02 04:00:00+00:00,100.59132085500227,100.46829539126679,100.40727550485077,100.4451856475548,575.0
2020-01-02 05:00:00+00:00,100.4451856475548,101.10672271444436,100.73582030338581,101.04657380832022,368.0
2020-01-02 06:00:00+00:00,101.04657380832022,100.82599740537643,100.31781808458362,100.51469784242386,240.0
2020-01-02 07:00:00+00:00,100.51469784242386,100.65587724334306,99.8517661864287,100.33966570295995,642.0
2020-01-02 08:00:00+00:00,100.33966570295995,101.2679088336185,100.81887854235168,100.86918908343384,385.0
2020-01-02 09:00:00+00:00,100.86918908343384,101.25469358300498,100.89601996660394,101.21739909314837,803.0
2020-01-02 10:00:00+00:00,101.21739909314837,101.60426774551883,100.82705494826432,101.27230911511778,698.0
2020-01-02 11:00:00+00:00,101.27230911511778,101.8505045704144,101.47502412845074,101.67437172801488,405.0
2020-01-02 12:00:00+00:00,101.67437172801488,100.0033630653982,99.47935253802704,99.97747434390861,888.0
2020-01-02 13:00:00+00:00,99.97747434390861,100.73500991353335,100.13744673694006,100.59025843440867,128.0
2020-01-02 14:00:00+00:00,100.59025843440867,100.33609912916786,99.84437884438277,100.01447157852378,179.0
2020-01-02 15:00:00+00:00,100.01447157852378,99.25378130695677,98.4357873667516,99.0132996729302,101.0
2020-01-02 16:00:00+00:00,99.0132996729302,99.71128151530132,99.1462253860713,99.17916712864279,150.0
2020-01-02 17:00:00+00:00,99.17916712864279,99.76311887463517,99.586459614923,99.59949405985243,810.0
2020-01-02 18:00:00+00:00,99.59949405985243,99.8059531117906,99.10079168626564,99.33263358644275,703.0
2020-01-02 19:00:00+00:00,99.33263358644275,99.06926710003972,98.5228417683191,98.68679008238227,832.0
2020-01-02 20:00:00+00:00,98.68679008238227,98.8951315613759,98.5528091292537,98.70246498250269,866.0
2020-01-02 21:00:00+00:00,98.70246498250269,98.79272526461736,98.24431121073405,98.67081659755696,741.0
2020-01-02 22:00:00+00:00,98.67081659755696,99.75284298649294,99.06547353179062,99.51417549716783,297.0
2020-01-02 23:00:00+00:00,99.51417549716783,100.09605331744235,99.9523276404641,99.96262028965543,121.0
2020-01-03 00:00:00+00:00,99.96262028965543,100.21841945566081,99.82215494735146,100.0789096774142,476.0
2020-01-03 01:00:00+00:00,100.0789096774142,100.7621036393877,100.52438298261049,100.7458896005486,330.0
2020-01-03 02:00:00+00:00,100.7458896005486,100.6313906032426,100.49898963551485,100.62257577060512,515.0
2020-01-03 03:00:00+00:00,100.62257577060512,100.38346894650813,99.77913442965765,100.0670360264161,954.0
2020-01-03 04:00:00+00:00,100.0670360264161,100.63238819069824,100.19859900301675,100.41747101303125,918.0
2020-01-03 05:00:00+00:00,100.41747101303125,100.90857416779731,100.39547370444575,100.76699406422466,602.0
2020-01-03 06:00:00+00:00,100.76699406422466,100.79482571120094,100.34857179610134,100.63809671754855,148.0
2020-01-03 07:00:00+00:00,100.63809671754855,100.51908821897617,100.1659081773221,100.16841157077017,487.0
2020-01-03 08:00:00+00:00,100.16841157077017,100.60332561132155,100.1388071592409,100.30590391389813,934.0
2020-01-03 09:00:00+00:00,100.30590391389813,99.19569031313381,98.37811498315375,98.80956734682334,974.0
2020-01-03 10:00:00+00:00,98.80956734682334,99.23376739102767,99.06265063329012,99.22364220892102,502.0
2020-01-03 11:00:00+00:00,99.22364220892102,99.5655039309196,99.47791785000588,99.51846316536802,971.0
2020-01-03 12:00:00+00:00,99.51846316536802,98.790980777842,98.46643498691851,98.53514887903373,432.0
2020-01-03 13:00:00+00:00,98.53514887903373,98.69028448888879,98.32032121973116,98.57196098493662,325.0
2020-01-03 14:00:00+00:00,98.57196098493662,98.24270109432435,97.96443641943489,97.99350118681188,628.0
2020-01-03 15:00:00+00:00,97.99350118681188,98.6651216391408,98.36766270247978,98.44783381366678,749.0
2020-01-03 16:00:00+00:00,98.44783381366678,97.43682885355706,96.80618470224525,97.22733344960072,118.0
2020-01-03 17:00:00+00:00,97.22733344960072,96.70359512757601,96.51156724695267,96.67863672680396,835.0
2020-01-03 18:00:00+00:00,96.67863672680396,97.14016001722347,96.70715611234948,97.1043847194492,386.0
2020-01-03 19:00:00+00:00,97.1043847194492,98.31822746254693,97.13775821340647,97.7982253485085,866.0
2020-01-03 20:00:00+00:00,97.7982253485085,97.2797691221583,96.47345758036617,96.50342212043277,328.0
2020-01-03 21:00:00+00:00,96.50342212043277,96.23457638830756,95.849972849547,96.20459821358199,922.0
2020-01-03 22:00:00+00:00,96.20459821358199,96.40562967278018,96.34928825274122,96.40141026910754,191.0
2020-01-03 23:00:00+00:00,96.40141026910754,96.72035592277427,95.77126077595902,96.03588058633761,776.0
2020-01-04 00:00:00+00:00,96.03588058633761,97.05372441502045,96.84486270202227,96.9902647251315,208.0
2020-01-04 01:00:00+00:00,96.9902647251315,96.27763860785828,95.8663525474426,96.27552871616084,161.0
2020-01-04 02:00:00+00:00,96.27552871616084,96.81010102146793,96.26366976414243,96.48824788393298,128.0
2020-01-04 03:00:00+00:00,96.48824788393298,96.09488284263495,95.82952189041411,95.85920457280628,375.0
2020-01-04 04:00:00+00:00,95.85920457280628,97.17250848204797,96.4976774605595,96.70278233868721,952.0
2020-01-04 05:00:00+00:00,96.70278233868721,96.75424748679342,96.27532181868665,96.68979160125387,280.0
2020-01-04 06:00:00+00:00,96.68979160125387,96.50809829152044,96.41197523045058,96.46644126285351,523.0
2020-01-04 07:00:00+00:00,96.46644126285351,95.81023027585846,95.24787999602574,95.43553029301394,673.0
2020-01-04 08:00:00+00:00,95.43553029301394,96.70164784271597,96.20264896710854,96.44462562005396,783.0
2020-01-04 09:00:00+00:00,96.44462562005396,97.21296130043908,96.7220865784011,96.89629277567238,591.0
2020-01-04 10:00:00+00:00,96.89629277567238,97.76435733413003,97.16621260758504,97.348431078178,393.0
2020-01-04 11:00:00+00:00,97.348431078178,98.45351141310442,97.85544372042466,98.03115983352866,974.0
2020-01-04 12:00:00+00:00,98.03115983352866,98.42137362552121,97.86158066886209,98.24069578040249,110.0
2020-01-04 13:00:00+00:00,98.24069578040249,97.86629691507393,97.84848855532287,97.85714781405663,314.0
2020-01-04 14:00:00+00:00,97.85714781405663,97.74042401975441,97.14900393073363,97.37700307783857,513.0
2020-01-04 15:00:00+00:00,97.37700307783857,96.98545111008306,96.59010783755613,96.89688309022196,213.0
2020-01-04 16:00:00+00:00,96.89688309022196,97.75118149921097,97.4056897625239,97.71892649502219,818.0
2020-01-04 17:00:00+00:00,97.71892649502219,96.88560945443228,96.40390950982804,96.84269777430495,127.0
2020-01-04 18:00:00+00:00,96.84269777430495,96.73312266188056,95.94044371319329,96.48487606724247,290.0
2020-01-04 19:00:00+00:00,96.48487606724247,96.40738919063315,96.03702245605125,96.29212971567075,279.0
2020-01-04 20:00:00+00:00,96.29212971567075,96.95774027275829,96.23553402839393,96.42690113088021,463.0
2020-01-04 21:00:00+00:00,96.42690113088021,97.18441891158871,96.4185620504118,96.7721107639849,904.0
2020-01-04 22:00:00+00:00,96.7721107639849,96.22619469021548,95.97816933630924,96.02265255852757,558.0
2020-01-04 23:00:00+00:00,96.02265255852757,95.3077683001529,94.74898967163196,94.98464448776406,653.0
2020-01-05 00:00:00+00:00,94.98464448776406,95.37914184942474,94.75411076084022,94.98199594819089,403.0
2020-01-05 01:00:00+00:00,94.98199594819089,95.9219326943845,95.41427812030028,95.71013424336253,323.0
2020-01-05 02:00:00+00:00,95.71013424336253,96.53209176263259,96.15044456970796,96.16436907894044,594.0
2020-01-05 03:00:00+00:00,96.16436907894044,96.5515846976117,95.79726911584832,96.29375954916041,618.0
2020-01-05 04:00:00+00:00,96.29375954916041,96.12514793884996,96.03862855097007,96.10346616275001,939.0
2020-01-05 05:00:00+00:00,96.10346616275001,96.76504968129488,95.8149463545284,96.27940638023014,683.0
2020-01-05 06:00:00+00:00,96.27940638023014,96.16144758476663,95.80856880357705,96.13340532878483,417.0
2020-01-05 07:00:00+00:00,96.13340532878483,96.78152701229811,96.33554536048541,96.62372927708039,399.0
2020-01-05 08:00:00+00:00,96.62372927708039,96.24595284557324,95.77654979767993,96.14706087374826,440.0
2020-01-05 09:00:00+00:00,96.14706087374826,96.73197249342113,95.78492983027495,96.22760484200006,117.0
2020-01-05 10:00:00+00:00,96.22760484200006,96.21429145578387,96.00348703743228,96.16113676033311,151.0
2020-01-05 11:00:00+00:00,96.16113676033311,96.56801436445755,96.2472290495692,96.48715239405121,731.0
2020-01-05 12:00:00+00:00,96.48715239405121,96.7146630481666,96.47883738772651,96.62193550824082,341.0
2020-01-05 13:00:00+00:00,96.62193550824082,98.28380877029942,97.84017915859967,98.15195629002557,622.0
2020-01-05 14:00:00+00:00,98.15195629002557,99.09976091599391,98.55903649844211,99.05114914490686,845.0
2020-01-05 15:00:00+00:00,99.05114914490686,99.95143305339408,99.93556754200732,99.94919144421797,173.0
2020-01-05 16:00:00+00:00,99.94919144421797,98.8069759113112,98.39720701668043,98.72548914166119,107.0
2020-01-05 17:00:00+00:00,98.72548914166119,99.09828437788893,98.45660143620732,98.52129916683975,551.0
2020-01-05 18:00:00+00:00,98.52129916683975,98.27783996847226,97.87890881626416,98.156132797292,804.0
2020-01-05 19:00:00+00:00,98.156132797292,98.48685771946778,98.25769993706493,98.47576575722542,230.0
2020-01-05 20:00:00+00:00,98.47576575722542,97.16819738804645,96.93982496068396,97.10834986379223,404.0
2020-01-05 21:00:00+00:00,97.10834986379223,98.01483253324537,97.18504475763132,97.81304907119774,472.0
2020-01-05 22:00:00+00:00,97.81304907119774,98.80771144770377,98.17859332547276,98.45323905773492,400.0
2020-01-05 23:00:00+00:00,98.45323905773492,97.87981538827532,97.66022215473143,97.67199654278745,760.0
2020-01-06 00:00:00+00:00,97.67199654278745,97.09671430622204,96.92900974530289,97.0848674256146,177.0
2020-01-06 01:00:00+00:00,97.0848674256146,96.76800857423208,96.41542280798197,96.60416421914589,643.0
2020-01-06 02:00:00+00:00,96.60416421914589,96.64402612245856,96.19082005096875,96.63014175931578,254.0
2020-01-06 03:00:00+00:00,96.63014175931578,97.16481027955362,96.11878099143898,97.01472439812946,397.0
2020-01-06 04:00:00+00:00,97.01472439812946,98.50350425247528,98.0594369272844,98.24345603134387,241.0
2020-01-06 05:00:00+00:00,98.24345603134387,98.27851456372694,97.8164489071311,98.12498877341126,789.0
2020-01-06 06:00:00+00:00,98.12498877341126,99.01814988658198,98.04553839557724,98.58549030875344,336.0
2020-01-06 07:00:00+00:00,98.58549030875344,98.77560364242999,98.61997503131794,98.6787409947891,327.0
2020-01-06 08:00:00+00:00,98.6787409947891,99.7911372727037,99.45617583623005,99.73469676513405,565.0
2020-01-06 09:00:00+00:00,99.73469676513405,100.31315338373496,99.84842915309221,100.17999148186098,686.0
2020-01-06 10:00:00+00:00,100.17999148186098,101.28391762737115,100.8336793169593,101.00112175238567,784.0
2020-01-06 11:00:00+00:00,101.00112175238567,100.44801910429103,100.12315333195544,100.35451663851559,363.0
2020-01-06 12:00:00+00:00,100.35451663851559,100.31955013796036,100.08248191155133,100.23917221160002,982.0
2020-01-06 13:00:00+00:00,100.23917221160002,99.83948089428438,99.74179783581809,99.7509087584948,668.0
2020-01-06 14:00:00+00:00,99.7509087584948,100.66348490807964,100.60876831556848,100.65387720089979,150.0
2020-01-06 15:00:00+00:00,100.65387720089979,101.41338115877844,101.0002974843652,101.04846114319045,617.0
2020-01-06 16:00:00+00:00,101.04846114319045,101.20294320424647,100.81154786479578,100.86537448772394,642.0
2020-01-06 17:00:00+00:00,100.86537448772394,101.10161628883034,100.18354428923504,100.5938937554817,641.0
2020-01-06 18:00:00+00:00,100.5938937554817,100.96365181659966,100.3540889993301,100.88469268240571,988.0
2020-01-06 19:00:00+00:00,100.88469268240571,100.58344763107742,99.98832104821953,100.463795364298,861.0
2020-01-06 20:00:00+00:00,100.463795364298,99.98559051316653,99.11155709295886,99.9054420385707,729.0
2020-01-06 21:00:00+00:00,99.9054420385707,100.42960581882757,100.13446760498684,100.19420673393361,831.0
2020-01-06 22:00:00+00:00,100.19420673393361,102.11602088258309,101.2776278685007,101.67208595319674,724.0
2020-01-06 23:00:00+00:00,101.67208595319674,102.00830873788945,101.32394080008756,101.52440582075786,981.0
2020-01-07 00:00:00+00:00,101.52440582075786,101.33124205163915,101.07169260659512,101.19088635228172,943.0
2020-01-07 01:00:00+00:00,101.19088635228172,100.86746009455655,100.40194032654334,100.48819225186641,303.0
2020-01-07 02:00:00+00:00,100.48819225186641,99.71138702069373,99.63134645092484,99.68718567733077,696.0
2020-01-07 03:00:00+00:00,99.68718567733077,100.11904230831892,99.72446134822535,100.0021756180693,985.0
2020-01-07 04:00:00+00:00,100.0021756180693,100.55479324739743,100.30093682454837,100.51265743773644,797.0
2020-01-07 05:00:00+00:00,100.51265743773644,100.78731415401313,100.23873772534539,100.51816227026593,701.0
2020-01-07 06:00:00+00:00,100.51816227026593,100.97669070221006,100.70468119956897,100.71770786347166,392.0
2020-01-07 07:00:00+00:00,100.71770786347166,100.89981118419314,100.54621898353379,100.78725780997593,233.0
2020-01-07 08:00:00+00:00,100.78725780997593,101.01510478477088,100.64187595162582,100.87045071760426,213.0
2020-01-07 09:00:00+00:00,100.87045071760426,100.46938980468425,99.87646451272086,99.95475528605455,102.0
2020-01-07 10:00:00+00:00,99.95475528605455,100.07001191888918,99.61820122641869,99.679884322225,381.0
2020-01-07 11:00:00+00:00,99.679884322225,99.92043855654174,99.72315861709568,99.74677190677899,315.0
2020-01-07 12:00:00+00:00,99.74677190677899,99.28326634489363,98.96814502038215,99.27687183844077,518.0
2020-01-07 13:00:00+00:00,99.27687183844077,99.34011280399935,98.62734499436901,98.99101399212488,507.0
2020-01-07 14:00:00+00:00,98.99101399212488,98.78647083940554,98.00615522203313,98.49954188392825,260.0
2020-01-07 15:00:00+00:00,98.49954188392825,98.32147882368163,98.20349520212183,98.29944387940917,674.0
2020-01-07 16:00:00+00:00,98.29944387940917,99.32892969498465,98.76010378007298,98.81130884400426,929.0
2020-01-07 17:00:00+00:00,98.81130884400426,98.86126055769931,98.36554529896927,98.5673606336109,899.0
2020-01-07 18:00:00+00:00,98.5673606336109,99.14267334764078,98.0632046917271,98.47503822549264,203.0
2020-01-07 19:00:00+00:00,98.47503822549264,99.96289363187546,98.41497899096353,98.9632692411555,854.0
2020-01-07 20:00:00+00:00,98.9632692411555,99.66150252827781,99.30675582658752,99.35013136964966,588.0
2020-01-07 21:00:00+00:00,99.35013136964966,100.68564089763215,100.19033244594787,100.36725590502543,928.0
2020-01-07 22:00:00+00:00,100.36725590502543,99.25469859476114,98.90906816858254,99.11296485814829,765.0
2020-01-07 23:00:00+00:00,99.11296485814829,99.69240344429483,99.07497592536598,99.62708022486214,885.0
2020-01-08 00:00:00+00:00,99.62708022486214,99.52019120543719,99.0373671840736,99.33770977279829,322.0
2020-01-08 01:00:00+00:00,99.33770977279829,99.68408555528124,99.189139261691,99.41852486408902,883.0
2020-01-08 02:00:00+00:00,99.41852486408902,99.98501986367188,99.52420446367947,99.92115649502847,509.0
2020-01-08 03:00:00+00:00,99.92115649502847,100.80873785618638,100.44053195681354,100.57110838844326,985.0
2020-01-08 04:00:00+00:00,100.57110838844326,101.33482276869762,101.04810701153161,101.19471880262857,654.0
2020-01-08 05:00:00+00:00,101.19471880262857,101.40656645646821,101.1581087812547,101.28778281727553,774.0
2020-01-08 06:00:00+00:00,101.28778281727553,102.43419426157227,102.07529868918279,102.25358042708652,280.0
2020-01-08 07:00:00+00:00,102.25358042708652,102.23808203430664,101.94458595916,102.08379589075683,238.0
2020-01-08 08:00:00+00:00,102.08379589075683,102.12749576478984,101.79034407369889,101.99920674291435,912.0
2020-01-08 09:00:00+00:00,101.99920674291435,102.87030154141931,102.47176639361362,102.47881745625081,617.0
2020-01-08 10:00:00+00:00,102.47881745625081,102.91902183307023,101.88525072900724,102.14799401146253,796.0
2020-01-08 11:00:00+00:00,102.14799401146253,103.66650953137156,102.81353303502587,103.44453776668328,503.0
2020-01-08 12:00:00+00:00,103.44453776668328,104.70841232772818,104.01462717605655,104.05606170589606,538.0
2020-01-08 13:00:00+00:00,104.05606170589606,105.48903886836719,105.21488438275465,105.36140689946829,713.0
2020-01-08 14:00:00+00:00,105.36140689946829,105.45850691937399,105.15729887286297,105.34545338717481,296.0
2020-01-08 15:00:00+00:00,105.34545338717481,105.43063965510314,104.88746872134276,105.11560025701803,359.0
2020-01-08 16:00:00+00:00,105.11560025701803,105.53953371236858,104.90242935950748,105.21582905831819,578.0
2020-01-08 17:00:00+00:00,105.21582905831819,105.89176036977639,105.5619564438532,105.65657495988191,931.0
2020-01-08 18:00:00+00:00,105.65657495988191,105.54208895005874,105.02259081781867,105.3041183477575,175.0
2020-01-08 19:00:00+00:00,105.3041183477575,105.91212967155411,105.10289564588946,105.53193939594097,355.0
2020-01-08 20:00:00+00:00,105.53193939594097,105.84957313931787,105.43091626679535,105.52185682858847,847.0
2020-01-08 21:00:00+00:00,105.52185682858847,106.81833529029872,106.37055416140471,106.49126588493434,512.0
2020-01-08 22:00:00+00:00,106.49126588493434,106.16171117571484,106.07184179349268,106.09364479755381,179.0
2020-01-08 23:00:00+00:00,106.09364479755381,106.95126293713238,106.55474552842344,106.72134186059104,254.0
2020-01-09 00:00:00+00:00,106.72134186059104,106.54687315339618,105.74298973024909,106.33502373926704,962.0
2020-01-09 01:00:00+00:00,106.33502373926704,105.99163896772092,104.80126184554426,105.75864322340259,926.0
2020-01-09 02:00:00+00:00,105.75864322340259,105.5785915761353,105.0916668114322,105.33246356697721,454.0
2020-01-09 03:00:00+00:00,105.33246356697721,104.91516934392027,104.49577568762031,104.61835204987186,907.0
2020-01-09 04:00:00+00:00,104.61835204987186,104.79541859849512,104.43896241460124,104.70616226591173,271.0
2020-01-09 05:00:00+00:00,104.70616226591173,105.32911346695366,105.05094606602741,105.32491874355894,954.0
2020-01-09 06:00:00+00:00,105.32491874355894,105.5160300792741,105.33304882734905,105.42350767067981,136.0
2020-01-09 07:00:00+00:00,105.42350767067981,106.16807725626292,104.94279110313656,105.79810273799073,296.0
2020-01-09 08:00:00+00:00,105.79810273799073,106.85873972767419,106.4685817892237,106.77740725533582,903.0
2020-01-09 09:00:00+00:00,106.77740725533582,107.15301425042942,106.69490972249396,106.93942312364312,400.0
2020-01-09 10:00:00+00:00,106.93942312364312,107.27495518307668,106.79634481136448,107.05652054022099,790.0
2020-01-09 11:00:00+00:00,107.05652054022099,106.98472917277968,106.59046305155883,106.89148365944482,921.0
2020-01-09 12:00:00+00:00,106.89148365944482,106.15232145366637,105.23505169210797,105.92653828843805,105.0
2020-01-09 13:00:00+00:00,105.92653828843805,106.62682633528328,106.00241098820149,106.3823816475589,892.0
2020-01-09 14:00:00+00:00,106.3823816475589,105.6762827475137,105.16154711902927,105.32850537898331,964.0
2020-01-09 15:00:00+00:00,105.32850537898331,105.80724668047336,105.46541887668673,105.72011124081361,202.0
2020-01-09 16:00:00+00:00,105.72011124081361,105.77935231556684,105.68423791272777,105.71151903937324,224.0
2020-01-09 17:00:00+00:00,105.71151903937324,106.78708320319537,106.36927902806035,106.38758790985949,519.0
2020-01-09 18:00:00+00:00,106.38758790985949,106.42040570889876,106.02317547763651,106.34692575355322,256.0
2020-01-09 19:00:00+00:00,106.34692575355322,106.06044645540634,105.78127735293126,105.85300565877861,150.0
2020-01-09 20:00:00+00:00,105.85300565877861,106.59748155484807,105.98157760874362,106.06775181883017,862.0
2020-01-09 21:00:00+00:00,106.06775181883017,106.08919800879099,105.55648191226183,105.7316101374053,846.0
2020-01-09 22:00:00+00:00,105.7316101374053,106.11736014707618,105.23433669169106,105.6230360426082,393.0
2020-01-09 23:00:00+00:00,105.6230360426082,105.74970920379839,105.63104405557134,105.64815851472541,856.0
2020-01-10 00:00:00+00:00,105.64815851472541,105.71496295718775,105.43670331139145,105.567428687678,371.0
2020-01-10 01:00:00+00:00,105.567428687678,106.17825582167013,105.32576386856908,105.45414732269371,945.0
2020-01-10 02:00:00+00:00,105.45414732269371,105.32424753367684,104.77304278410097,104.95468032972148,398.0
2020-01-10 03:00:00+00:00,104.95468032972148,105.1105272189458,104.47267949953716,104.8412000592658,831.0
2020-01-10 04:00:00+00:00,104.8412000592658,103.56318925083741,103.20845047098337,103.55819569499319,719.0
2020-01-10 05:00:00+00:00,103.55819569499319,103.51087575814321,103.35589767960643,103.46379643785805,480.0
2020-01-10 06:00:00+00:00,103.46379643785805,102.79022588512744,102.70239627089867,102.74496284629889,630.0
2020-01-10 07:00:00+00:00,102.74496284629889,104.12640140583547,103.21608971099069,103.41712106050711,439.0
2020-01-10 08:00:00+00:00,103.41712106050711,104.40617856106869,103.85282647663934,104.17907710889986,921.0
2020-01-10 09:00:00+00:00,104.17907710889986,103.19948247570602,102.81014046262612,103.0084616405871,692.0
2020-01-10 10:00:00+00:00,103.0084616405871,103.14450715414996,102.9544093717473,103.09541171480664,126.0
2020-01-10 11:00:00+00:00,103.09541171480664,103.0604351646292,102.99598480255023,103.0195933615066,481.0
2020-01-10 12:00:00+00:00,103.0195933615066,102.65289259656348,102.26741541218689,102.39156398345807,888.0
2020-01-10 13:00:00+00:00,102.39156398345807,102.79929847613076,102.48928326974082,102.71055586904747,964.0
2020-01-10 14:00:00+00:00,102.71055586904747,102.67217056049168,101.77755379448209,102.43354214225462,632.0
2020-01-10 15:00:00+00:00,102.43354214225462,101.53270942886043,101.29365634745706,101.37298268484265,519.0
2020-01-10 16:00:00+00:00,101.37298268484265,101.63444239906055,100.9451919245508,101.21297669360848,965.0
2020-01-10 17:00:00+00:00,101.21297669360848,101.21996802764444,100.85792249014827,101.12402482262841,512.0
2020-01-10 18:00:00+00:00,101.12402482262841,101.59886784192118,101.10303134486279,101.1878834335733,967.0
2020-01-10 19:00:00+00:00,101.1878834335733,100.52779857933567,100.29566012417557,100.44914363433364,977.0
2020-01-10 20:00:00+00:00,100.44914363433364,100.97837103607093,100.79887366181785,100.8185521904866,482.0
2020-01-10 21:00:00+00:00,100.8185521904866,101.71737378351338,100.84850083193322,101.25982644340593,334.0
2020-01-10 22:00:00+00:00,101.25982644340593,100.81791797795904,100.22641015903845,100.57233007729299,947.0
2020-01-10 23:00:00+00:00,100.57233007729299,100.48123119563749,100.06094606782314,100.17701673590308,395.0
2020-01-11 00:00:00+00:00,100.17701673590308,100.27827013764197,99.99425643268135,100.12881434760547,539.0
2020-01-11 01:00:00+00:00,100.12881434760547,99.9243247450907,99.71113673886614,99.78925915139804,169.0
2020-01-11 02:00:00+00:00,99.78925915139804,101.20575640889109,100.8016529443433,100.83551191730785,545.0
2020-01-11 03:00:00+00:00,100.83551191730785,101.21181297337905,100.778534372276,100.9605351870028,933.0
2020-01-11 04:00:00+00:00,100.9605351870028,100.67370165540018,100.3235305703913,100.35418596519028,364.0
2020-01-11 05:00:00+00:00,100.35418596519028,99.9377556641898,99.78648018919333,99.88132060861541,569.0
2020-01-11 06:00:00+00:00,99.88132060861541,99.85832635860189,99.51716132790179,99.84683845366199,915.0
2020-01-11 07:00:00+00:00,99.84683845366199,101.35624821122747,100.72860878846649,101.22430573861715,500.0
2020-01-11 08:00:00+00:00,101.22430573861715,101.25129134764165,100.61253976872122,101.11734714552331,951.0
2020-01-11 09:00:00+00:00,101.11734714552331,101.61301378034653,101.06745325823805,101.19383299706719,902.0
2020-01-11 10:00:00+00:00,101.19383299706719,101.83824079726001,101.09897303128504,101.5022602239621,283.0
2020-01-11 11:00:00+00:00,101.5022602239621,101.52552177180318,101.11830591991124,101.47818466220427,920.0
2020-01-11 12:00:00+00:00,101.47818466220427,103.09686549509787,102.55215228704452,102.8465811857443,592.0
2020-01-11 13:00:00+00:00,102.8465811857443,102.73784434802087,102.0654241297297,102.5276662175292,287.0
2020-01-11 14:00:00+00:00,102.5276662175292,102.9956390700312,102.73151875404095,102.97418809261667,953.0
2020-01-11 15:00:00+00:00,102.97418809261667,103.11170727359074,102.92675514034663,103.07045087400681,212.0
2020-01-11 16:00:00+00:00,103.07045087400681,103.50992070812792,103.03718836927382,103.44316869793667,636.0
2020-01-11 17:00:00+00:00,103.44316869793667,103.23676560860547,102.41511407147286,102.73718292288483,892.0
2020-01-11 18:00:00+00:00,102.73718292288483,104.10137328003155,103.74097661002529,103.79805053994914,438.0
2020-01-11 19:00:00+00:00,103.79805053994914,104.09405439120974,103.32329847558222,103.72513403565107,961.0
2020-01-11 20:00:00+00:00,103.72513403565107,103.75408059330113,103.63824020266536,103.74563199289157,922.0
2020-01-11 21:00:00+00:00,103.74563199289157,103.33605152211724,102.91286448464672,103.18464623577032,588.0
2020-01-11 22:00:00+00:00,103.18464623577032,103.18299882809576,102.64577573004024,102.74682907486037,387.0
2020-01-11 23:00:00+00:00,102.74682907486037,103.18981395618539,102.80407872664179,103.0853727347612,755.0
2020-01-12 00:00:00+00:00,103.0853727347612,104.30305932146963,103.61190553872937,103.6772726664276,416.0
2020-01-12 01:00:00+00:00,103.6772726664276,104.3043478760042,103.93031982648266,104.12922548087984,117.0
2020-01-12 02:00:00+00:00,104.12922548087984,105.08387931132309,104.60103193637723,104.85460763069298,881.0
2020-01-12 03:00:00+00:00,104.85460763069298,105.76976005129082,104.98877161255452,105.28330097800674,541.0
2020-01-12 04:00:00+00:00,105.28330097800674,105.59006015302609,104.84454823471529,105.30037807802086,835.0
2020-01-12 05:00:00+00:00,105.30037807802086,106.06077380437209,105.59325049683846,105.80229367168755,172.0
2020-01-12 06:00:00+00:00,105.80229367168755,106.30624117277304,105.81017623564672,106.15845561593234,175.0
2020-01-12 07:00:00+00:00,106.15845561593234,106.33485966352471,105.66013771526029,106.09811045600748,218.0
2020-01-12 08:00:00+00:00,106.09811045600748,106.780646224158,106.20171423895114,106.53375408713157,350.0
2020-01-12 09:00:00+00:00,106.53375408713157,107.33858087880456,106.85682400421447,107.30517252384902,149.0
2020-01-12 10:00:00+00:00,107.30517252384902,107.70337535254664,107.240786791836,107.44591531820953,806.0
2020-01-12 11:00:00+00:00,107.44591531820953,108.00406093142095,107.07154072196961,107.23219225975105,582.0
2020-01-12 12:00:00+00:00,107.23219225975105,107.94017637452755,107.66041223949945,107.66341908352784,103.0
2020-01-12 13:00:00+00:00,107.66341908352784,109.50358710984099,108.16126070915855,108.80385212622738,617.0
2020-01-12 14:00:00+00:00,108.80385212622738,108.7307475942243,108.67677485245615,108.67751490032992,864.0
2020-01-12 15:00:00+00:00,108.67751490032992,108.72104444326473,108.53548884484307,108.62212912706033,486.0
2020-01-12 16:00:00+00:00,108.62212912706033,108.94040192460257,108.25857980129855,108.54029060783957,473.0
2020-01-12 17:00:00+00:00,108.54029060783957,109.7914080193175,109.23521150046571,109.27410105273735,744.0
2020-01-12 18:00:00+00:00,109.27410105273735,108.33828647695654,107.81086924280713,108.17178209858946,315.0
2020-01-12 19:00:00+00:00,108.17178209858946,108.41427891071675,108.37402702974704,108.39128932103793,174.0
2020-01-12 20:00:00+00:00,108.39128932103793,109.53700652913159,108.7861306939862,109.10664767049445,106.0
2020-01-12 21:00:00+00:00,109.10664767049445,108.67863153123884,108.31098703283274,108.61861776795352,309.0
2020-01-12 22:00:00+00:00,108.61861776795352,109.77850388140169,109.38550971083082,109.51200421285101,849.0
2020-01-12 23:00:00+00:00,109.51200421285101,109.85910506915414,109.71470974770644,109.83318961793317,259.0
2020-01-13 00:00:00+00:00,109.83318961793317,109.67453411485467,109.39562576717186,109.50376806758015,757.0
2020-01-13 01:00:00+00:00,109.50376806758015,110.04842392986912,109.25051793323284,109.62625195920678,556.0
2020-01-13 02:00:00+00:00,109.62625195920678,108.81603303642241,108.56763375841706,108.70555668644707,586.0
2020-01-13 03:00:00+00:00,108.70555668644707,108.6054762638354,108.1603992704822,108.36621406473577,811.0
2020-01-13 04:00:00+00:00,108.36621406473577,109.6413065600981,109.24715938608355,109.46235635526537,766.0
2020-01-13 05:00:00+00:00,109.46235635526537,109.00266863600724,108.71164751227708,108.92607392632239,259.0
2020-01-13 06:00:00+00:00,108.92607392632239,110.41503657027069,109.90160797440956,110.03281696546908,786.0
2020-01-13 07:00:00+00:00,110.03281696546908,110.51241540478928,109.66328519755172,109.98387281255492,910.0
2020-01-13 08:00:00+00:00,109.98387281255492,110.59763145231868,110.55296373986094,110.58067054294078,102.0
2020-01-13 09:00:00+00:00,110.58067054294078,110.65044769153357,110.571753888019,110.60700875653048,415.0
2020-01-13 10:00:00+00:00,110.60700875653048,109.48199839536699,108.98290346182365,109.26211983035627,238.0
2020-01-13 11:00:00+00:00,109.26211983035627,109.56748491432704,108.68864308793839,108.91852904376557,278.0
2020-01-13 12:00:00+00:00,108.91852904376557,109.05178137291416,108.57420839124663,109.0324412017144,591.0
2020-01-13 13:00:00+00:00,109.0324412017144,108.38290825723351,107.95257522303005,108.34187137633955,328.0
2020-01-13 14:00:00+00:00,108.34187137633955,107.64510987595943,107.12994466085536,107.533424936376,622.0
2020-01-13 15:00:00+00:00,107.533424936376,108.15728440294212,107.63189919478198,107.75313644860975,790.0
2020-01-13 16:00:00+00:00,107.75313644860975,107.5051474874325,106.74332617039326,107.36348744874327,895.0
2020-01-13 17:00:00+00:00,107.36348744874327,106.8956206364032,105.94573993355932,106.34599111615489,106.0
2020-01-13 18:00:00+00:00,106.34599111615489,106.03724503789311,105.92349370394915,105.93552201199101,320.0
2020-01-13 19:00:00+00:00,105.93552201199101,106.51362406543471,106.16257907049105,106.45196455600686,485.0
2020-01-13 20:00:00+00:00,106.45196455600686,106.21186708570899,106.02215014503382,106.16771691395739,575.0
2020-01-13 21:00:00+00:00,106.16771691395739,107.11295932736184,106.70002600204653,106.72858045682851,361.0
2020-01-13 22:00:00+00:00,106.72858045682851,108.14407167638794,107.49258053235381,107.64494411441842,115.0
2020-01-13 23:00:00+00:00,107.64494411441842,107.8291566184807,107.319260302201,107.66445335471573,578.0
2020-01-14 00:00:00+00:00,107.66445335471573,107.08970387655015,106.79484305425898,106.98664334863649,296.0
2020-01-14 01:00:00+00:00,106.98664334863649,106.21209461158736,105.61220565113676,106.20570429125262,454.0
2020-01-14 02:00:00+00:00,106.20570429125262,106.70757857382044,105.95719272454645,106.18995197874031,445.0
2020-01-14 03:00:00+00:00,106.18995197874031,107.25080049508182,106.3184384454696,106.71858538494526,183.0
2020-01-14 04:00:00+00:00,106.71858538494526,107.75006470548529,106.57935933133125,106.87999458193327,976.0
2020-01-14 05:00:00+00:00,106.87999458193327,107.31757808096239,107.00885185138078,107.2083488960462,237.0
2020-01-14 06:00:00+00:00,107.2083488960462,107.56968925657026,106.92897009330511,106.94234382750301,676.0
2020-01-14 07:00:00+00:00,106.94234382750301,107.16982524357508,106.78042619334913,107.12259748299178,965.0
2020-01-14 08:00:00+00:00,107.12259748299178,106.90943328801784,106.58296113940077,106.83981222346526,109.0
2020-01-14 09:00:00+00:00,106.83981222346526,106.99819021318504,106.40860815423115,106.64444628133701,607.0
2020-01-14 10:00:00+00:00,106.64444628133701,106.27669040518428,105.5686163169019,105.86909839734545,443.0
2020-01-14 11:00:00+00:00,105.86909839734545,105.31355747223324,104.55207366853696,104.92577059901065,927.0
2020-01-14 12:00:00+00:00,104.92577059901065,104.71292233588046,104.34154134898763,104.63659658390728,258.0
2020-01-14 13:00:00+00:00,104.63659658390728,104.01250867349596,103.69408538340879,103.97203697959061,958.0
2020-01-14 14:00:00+00:00,103.97203697959061,103.71200691415928,103.27341123321195,103.39678954751871,779.0
2020-01-14 15:00:00+00:00,103.39678954751871,104.06551184578035,103.44409542652419,103.79941802529794,642.0
2020-01-14 16:00:00+00:00,103.79941802529794,104.15995687578285,103.666841365614,103.73516947241393,836.0
2020-01-14 17:00:00+00:00,103.73516947241393,105.68869036510752,105.32642552092113,105.48364500522746,922.0
2020-01-14 18:00:00+00:00,105.48364500522746,106.04806091135623,106.00653944369468,106.03945025048138,228.0
2020-01-14 19:00:00+00:00,106.03945025048138,105.78328699039254,105.21061505686545,105.65953768137365,478.0
2020-01-14 20:00:00+00:00,105.65953768137365,106.26668408901469,105.97746874605541,106.1263420866306,522.0
2020-01-14 21:00:00+00:00,106.1263420866306,106.61764087169523,105.90451266856748,106.3404244193946,367.0
2020-01-14 22:00:00+00:00,106.3404244193946,106.01714790096023,105.87802012641517,105.92901577168419,201.0
2020-01-14 23:00:00+00:00,105.92901577168419,106.75301254229679,106.28281714705118,106.59057275193516,830.0
2020-01-15 00:00:00+00:00,106.59057275193516,106.28046905599572,106.08263265788736,106.1253755872166,663.0
2020-01-15 01:00:00+00:00,106.1253755872166,104.40002501930128,104.18616782085874,104.29034683579962,395.0
2020-01-15 02:00:00+00:00,104.29034683579962,105.0096803596918,104.71815425062627,104.76678569128354,713.0
2020-01-15 03:00:00+00:00,104.76678569128354,104.4617057220774,103.97834739515356,104.39643022011289,338.0
2020-01-15 04:00:00+00:00,104.39643022011289,105.41034457562498,104.96413547222987,105.28805271552561,917.0
2020-01-15 05:00:00+00:00,105.28805271552561,104.92559522430545,104.2508308914905,104.89824939149547,529.0
2020-01-15 06:00:00+00:00,104.89824939149547,104.442776396048,103.89816872247145,104.18943684342426,127.0
2020-01-15 07:00:00+00:00,104.18943684342426,105.37762976493717,104.6899565871682,105.11851384298943,464.0
2020-01-15 08:00:00+00:00,105.11851384298943,104.7846272253287,104.03557925977796,104.47321484790822,696.0
2020-01-15 09:00:00+00:00,104.47321484790822,104.59711040182188,104.5016961000358,104.59525106280975,962.0
2020-01-15 10:00:00+00:00,104.59525106280975,105.91119453681057,105.29505012127584,105.4650873802878,480.0
2020-01-15 11:00:00+00:00,105.4650873802878,105.86171789895931,105.48858951875556,105.53378578633432,909.0
2020-01-15 12:00:00+00:00,105.53378578633432,105.50199139338704,105.10543644678448,105.48543483714366,680.0
2020-01-15 13:00:00+00:00,105.48543483714366,106.02232322901177,105.38418136129633,105.5468888994868,750.0
2020-01-15 14:00:00+00:00,105.5468888994868,106.2031459721968,105.89260278803667,106.0503210908301,803.0
2020-01-15 15:00:00+00:00,106.0503210908301,106.01461369257592,105.40190175557878,105.56623379502221,904.0
2020-01-15 16:00:00+00:00,105.56623379502221,106.04109454824989,105.35144609845767,105.93261839459969,739.0
2020-01-15 17:00:00+00:00,105.93261839459969,106.4403528830806,105.82556952995142,106.27886364476336,326.0
2020-01-15 18:00:00+00:00,106.27886364476336,107.7180823441347,107.55735475008673,107.67849085999289,535.0
2020-01-15 19:00:00+00:00,107.67849085999289,107.95186581423222,107.13441637273834,107.47657554203579,336.0
2020-01-15 20:00:00+00:00,107.47657554203579,107.01257298150071,106.75449490407205,106.92767762651553,249.0
2020-01-15 21:00:00+00:00,106.92767762651553,107.56654217614451,107.03849734778773,107.36908984031953,410.0
2020-01-15 22:00:00+00:00,107.36908984031953,107.14600607236312,106.73219075018892,107.130795490515,525.0
2020-01-15 23:00:00+00:00,107.130795490515,107.37762227498489,107.09540949344998,107.30426519034502,636.0
2020-01-16 00:00:00+00:00,107.30426519034502,107.63400565117679,106.92152320998761,107.38381110386318,971.0
2020-01-16 01:00:00+00:00,107.38381110386318,108.62510452693819,107.95283252332715,108.08484748065854,121.0
2020-01-16 02:00:00+00:00,108.08484748065854,107.71133110007626,107.52639682516875,107.6907449895565,936.0
2020-01-16 03:00:00+00:00,107.6907449895565,108.12411432798588,107.4890577126474,107.63537727224161,189.0
2020-01-16 04:00:00+00:00,107.63537727224161,106.24699964427506,105.84128876517734,106.10410968271385,604.0
2020-01-16 05:00:00+00:00,106.10410968271385,105.73023803253707,105.52838814736036,105.57004134494619,327.0
2020-01-16 06:00:00+00:00,105.57004134494619,106.98666647495901,106.22518899436923,106.49184463186933,423.0
2020-01-16 07:00:00+00:00,106.49184463186933,106.21272813367122,105.95696236142108,106.08294108308272,186.0
2020-01-16 08:00:00+00:00,106.08294108308272,105.84770690596623,105.59152942898632,105.66205499234724,128.0
2020-01-16 09:00:00+00:00,105.66205499234724,105.29511898866573,104.57026956309423,104.93131068315624,326.0
2020-01-16 10:00:00+00:00,104.93131068315624,105.56782653749269,105.27162580563648,105.27921125696778,970.0
2020-01-16 11:00:00+00:00,105.27921125696778,105.45991421586238,105.22608741630016,105.38600535499084,192.0
2020-01-16 12:00:00+00:00,105.38600535499084,105.27359143955863,104.05802984278948,104.6738852392126,351.0
2020-01-16 13:00:00+00:00,104.6738852392126,105.13620832764536,104.84474854042993,105.07435546366618,367.0
2020-01-16 14:00:00+00:00,105.07435546366618,105.53987388199211,104.86826681003443,105.23041899157208,554.0
2020-01-16 15:00:00+00:00,105.23041899157208,105.86446460806071,105.37775030116894,105.68283901923138,491.0
2020-01-16 16:00:00+00:00,105.68283901923138,105.36480984240183,105.15631073507802,105.29795131417507,239.0
2020-01-16 17:00:00+00:00,105.29795131417507,106.85428214607302,106.32149635007617,106.34075656881637,590.0
2020-01-16 18:00:00+00:00,106.34075656881637,106.62466566320917,106.49721689392766,106.58667713237702,510.0
2020-01-16 19:00:00+00:00,106.58667713237702,106.72674396786371,106.42796975959017,106.5165434221913,823.0
2020-01-16 20:00:00+00:00,106.5165434221913,106.30148652552842,106.040116535992,106.2052428532269,982.0
2020-01-16 21:00:00+00:00,106.2052428532269,106.23856622544368,105.9679783951775,106.05834643021397,361.0
2020-01-16 22:00:00+00:00,106.05834643021397,106.96048573973667,106.32322251599561,106.57362162680568,288.0
2020-01-16 23:00:00+00:00,106.57362162680568,106.92181918234066,106.07151554940464,106.41224161154665,446.0
2020-01-17 00:00:00+00:00,106.41224161154665,107.44480031433899,106.8246316008858,107.05912793577151,896.0
2020-01-17 01:00:00+00:00,107.05912793577151,107.73583304018106,107.3620729803105,107.40753363930847,881.0
2020-01-17 02:00:00+00:00,107.40753363930847,108.6775100808149,108.08507293718576,108.21543074359538,583.0
2020-01-17 03:00:00+00:00,108.21543074359538,108.7658077780653,108.4845643528336,108.70389328063008,116.0
2020-01-17 04:00:00+00:00,108.70389328063008,108.67378808182082,108.66418689228747,108.66612972082858,361.0
2020-01-17 05:00:00+00:00,108.66612972082858,107.68399164454644,107.36861598760933,107.52052575553465,562.0
2020-01-17 06:00:00+00:00,107.52052575553465,107.76224396746576,107.62587850966574,107.69966810383289,843.0
2020-01-17 07:00:00+00:00,107.69966810383289,108.3237532949424,108.02567412148494,108.17311372356593,206.0
2020-01-17 08:00:00+00:00,108.17311372356593,108.32942608384107,107.81460024860999,108.27084909239821,978.0
2020-01-17 09:00:00+00:00,108.27084909239821,108.65182218694862,108.27501780322412,108.60470812244816,112.0
2020-01-17 10:00:00+00:00,108.60470812244816,108.33632435304231,108.0925006849494,108.32173606373969,935.0
2020-01-17 11:00:00+00:00,108.32173606373969,108.64917510371964,107.96381848364403,108.09344951456306,897.0
2020-01-17 12:00:00+00:00,108.09344951456306,108.42657639495579,107.48718402377024,107.52801608822362,349.0
2020-01-17 13:00:00+00:00,107.52801608822362,108.5822129679442,108.06015973734142,108.34515632991716,699.0
2020-01-17 14:00:00+00:00,108.34515632991716,108.93062434050675,108.2627898830939,108.44019288807303,501.0
2020-01-17 15:00:00+00:00,108.44019288807303,108.22046985016877,107.5985157585179,108.14470123734444,519.0
